,Wavelength,SPIRE_500,SPIRE_350,SPIRE_250,dnu
0,166.671,1.12827e-11,4.85009e-07,0.000167652,-2933316080.42
1,166.949,-6.8155e-11,4.09394e-07,0.000130576,-2933316080.42
2,167.228,-4.5338e-11,3.65257e-07,9.3289e-05,-2933316080.42
3,167.48,-7.31973e-11,3.05637e-07,5.40014e-05,-2933316080.42
4,167.761,8.29041e-11,3.1539e-07,8.39994e-06,-2933316080.42
5,168.043,2.35465e-10,4.08507e-07,-3.74828e-05,-2933316080.42
6,168.326,4.54524e-11,3.88069e-07,-6.01829e-05,-2933316080.42
7,168.581,4.97124e-11,4.88721e-07,-6.99596e-05,-2933316080.42
8,168.866,-3.35843e-11,3.9772e-07,-7.53956e-05,-2933316080.42
9,169.152,-2.86114e-12,5.40921e-07,-1.98116e-05,-2933316080.42
10,169.438,-1.77152e-11,6.94852e-07,3.61085e-05,-2933316080.42
11,169.726,1.42561e-11,7.33966e-07,9.34957e-05,-2933316080.42
12,169.986,-1.77646e-11,5.30815e-07,0.000152443,-2933316080.42
13,170.275,-1.48585e-11,6.863e-07,0.000211706,-2933316080.42
14,170.565,5.29767e-11,5.3979e-07,0.000215766,-2933316080.42
15,170.857,4.00293e-11,6.21735e-07,0.000214717,-2933316080.42
16,171.149,4.38792e-11,5.49158e-07,0.000219491,-2933316080.42
17,171.413,6.15434e-11,5.69319e-07,0.00023544,-2933316080.42
18,171.708,2.85376e-11,4.33302e-07,0.000251545,-2933316080.42
19,172.003,4.09758e-12,4.62366e-07,0.000307726,-2933316080.42
20,172.299,1.24121e-10,4.07067e-07,0.00037661,-2933316080.42
21,172.567,6.43471e-11,4.53525e-07,0.000420365,-2933316080.42
22,172.865,4.42516e-11,4.31347e-07,0.000354841,-2933316080.42
23,173.165,6.5897e-11,3.83642e-07,0.000288877,-2933316080.42
24,173.465,1.17863e-10,3.52937e-07,0.00021586,-2933316080.42
25,173.766,8.12788e-11,4.35177e-07,0.000138153,-2933316080.42
26,174.038,1.18493e-10,3.78707e-07,6.27777e-05,-2933316080.42
27,174.342,1.04936e-10,4.37324e-07,5.97127e-05,-2933316080.42
28,174.646,1.25521e-11,4.13778e-07,5.66836e-05,-2933316080.42
29,174.952,7.53956e-11,5.44835e-07,6.98798e-05,-2933316080.42
30,175.259,1.05303e-10,6.32238e-07,0.00010218,-2933316080.42
31,175.535,6.64595e-11,6.94577e-07,0.000134633,-2933316080.42
32,175.844,1.24128e-10,4.41577e-07,0.000113373,-2933316080.42
33,176.154,1.50401e-10,7.28933e-07,8.5036e-05,-2933316080.42
34,176.465,2.09399e-10,5.92202e-07,5.97371e-05,-2933316080.42
35,176.745,2.78247e-10,4.61396e-07,4.12913e-05,-2933316080.42
36,177.058,4.18627e-10,5.60742e-07,2.278e-05,-2933316080.42
37,177.372,5.1692e-10,5.13938e-07,0.00011243,-2933316080.42
38,177.687,6.55079e-10,4.19784e-07,0.00024177,-2933316080.42
39,178.004,8.44351e-10,3.91274e-07,0.000356231,-2933316080.42
40,178.289,8.36607e-10,4.66998e-07,0.000389062,-2933316080.42
41,178.608,9.4515e-10,3.58482e-07,0.000422144,-2933316080.42
42,178.927,1.26229e-09,1.16182e-07,0.000328685,-2933316080.42
43,179.248,1.74169e-09,2.73724e-07,0.000144054,-2933316080.42
44,179.57,2.25522e-09,3.42155e-07,-4.00719e-05,-2933316080.42
45,179.861,2.82943e-09,4.65955e-07,-4.03365e-05,-2933316080.42
46,180.185,2.79753e-09,6.07759e-07,-4.06149e-05,-2933316080.42
47,180.51,2.25233e-09,5.05804e-07,6.92693e-05,-2933316080.42
48,180.836,1.54368e-09,6.30051e-07,0.00032452,-2933316080.42
49,181.131,1.03363e-09,5.8611e-07,0.000581107,-2933316080.42
50,181.46,8.51523e-10,6.53389e-07,0.000649021,-2933316080.42
51,181.79,7.4761e-10,5.15199e-07,0.000685936,-2933316080.42
52,182.121,8.34888e-10,7.77663e-07,0.000667635,-2933316080.42
53,182.453,8.4829e-10,8.57721e-07,0.000506846,-2933316080.42
54,182.753,8.64395e-10,9.03193e-07,0.000345183,-2933316080.42
55,183.088,8.07819e-10,8.94373e-07,0.000335128,-2933316080.42
56,183.424,7.80523e-10,1.07786e-06,0.000388747,-2933316080.42
57,183.761,6.11159e-10,8.34084e-07,0.000449337,-2933316080.42
58,184.099,6.3704e-10,5.74013e-07,0.00055441,-2933316080.42
59,184.404,4.98301e-10,5.58475e-07,0.000659874,-2933316080.42
60,184.745,6.08638e-10,4.48521e-07,0.000776159,-2933316080.42
61,185.087,6.80896e-10,4.66523e-07,0.000900372,-2933316080.42
62,185.43,7.07677e-10,8.17122e-07,0.00102597,-2933316080.42
63,185.74,5.66488e-10,9.70324e-07,0.00120811,-2933316080.42
64,186.086,4.7158e-10,8.78413e-07,0.00139294,-2933316080.42
65,186.433,2.88593e-10,5.10005e-07,0.00148298,-2933316080.42
66,186.781,1.89007e-10,2.64031e-07,0.00143104,-2933316080.42
67,187.13,1.48865e-10,5.23258e-07,0.00137875,-2933316080.42
68,187.446,1.91473e-10,5.79068e-07,0.00130426,-2933316080.42
69,187.798,1.29179e-10,4.43844e-07,0.00122419,-2933316080.42
70,188.151,5.44494e-11,3.20562e-07,0.0011911,-2933316080.42
71,188.506,5.24528e-11,3.23511e-07,0.00129764,-2933316080.42
72,188.862,3.82335e-11,3.31803e-07,0.00140424,-2933316080.42
73,189.184,2.69809e-11,4.18854e-07,0.00150045,-2933316080.42
74,189.542,7.0957e-11,6.46171e-07,0.00159148,-2933316080.42
75,189.902,5.79943e-11,-1.36725e-07,0.00167119,-2933316080.42
76,190.264,4.33415e-11,2.59823e-07,0.00164077,-2933316080.42
77,190.59,2.95737e-11,3.95338e-07,0.00160962,-2933316080.42
78,190.954,2.17072e-11,8.48935e-07,0.00154653,-2933316080.42
79,191.319,9.05295e-11,6.55428e-07,0.0014532,-2933316080.42
80,191.686,7.54815e-11,5.78873e-07,0.00135926,-2933316080.42
81,192.054,1.29556e-11,3.46331e-07,0.00150167,-2933316080.42
82,192.387,3.80544e-11,6.06699e-07,0.00165792,-2933316080.42
83,192.757,3.56471e-11,9.65993e-07,0.00184717,-2933316080.42
84,193.13,5.06495e-11,1.05797e-06,0.00209183,-2933316080.42
85,193.503,1.03703e-10,8.63546e-07,0.00233744,-2933316080.42
86,193.841,4.13208e-11,8.47432e-07,0.00249232,-2933316080.42
87,194.217,4.34009e-11,1.22795e-06,0.00262555,-2933316080.42
88,194.595,5.39985e-11,1.4344e-06,0.00278055,-2933316080.42
89,194.975,8.44735e-11,1.02712e-06,0.00301259,-2933316080.42
90,195.356,1.0226e-10,1.28029e-06,0.0032455,-2933316080.42
91,195.7,8.68959e-11,8.3226e-07,0.00361134,-2933316080.42
92,196.083,7.24613e-11,8.53335e-07,0.00405216,-2933316080.42
93,196.469,4.00298e-11,8.2846e-07,0.00448396,-2933316080.42
94,196.855,1.99958e-10,1.52111e-06,0.00475476,-2933316080.42
95,197.244,5.16539e-11,8.03469e-07,0.00502803,-2933316080.42
96,197.594,1.25264e-10,1.59061e-06,0.00537374,-2933316080.42
97,197.986,8.68273e-11,1.43121e-06,0.00579811,-2933316080.42
98,198.378,9.07555e-11,1.49356e-06,0.00622464,-2933316080.42
99,198.773,6.58843e-11,1.56511e-06,0.00692084,-2933316080.42
100,199.129,3.23213e-10,1.67339e-06,0.00764836,-2933316080.42
101,199.526,2.25716e-10,5.48919e-06,0.00844448,-2933316080.42
102,199.925,-4.4539e-11,3.89062e-06,0.00936908,-2933316080.42
103,200.326,1.41401e-10,3.03132e-07,0.0103068,-2933316080.42
104,200.728,2.13621e-10,7.62069e-07,0.0116365,-2933316080.42
105,201.091,2.39575e-10,3.76477e-07,0.0130882,-2933316080.42
106,201.496,-1.54733e-12,3.39827e-07,0.0146854,-2933316080.42
107,201.903,3.18704e-11,5.09057e-07,0.0168291,-2933316080.42
108,202.311,3.61897e-10,7.21119e-07,0.0189944,-2933316080.42
109,202.721,-2.014e-10,3.20031e-07,0.0214686,-2933316080.42
110,203.092,1.91195e-10,5.91468e-07,0.0241342,-2933316080.42
111,203.505,1.55608e-09,9.30451e-07,0.026889,-2933316080.42
112,203.92,4.78913e-10,7.44468e-07,0.0311481,-2933316080.42
113,204.337,-2.8791e-10,1.53697e-06,0.0354367,-2933316080.42
114,204.713,-1.51637e-09,2.77819e-06,0.0403534,-2933316080.42
115,205.133,4.21316e-09,6.45561e-07,0.0460026,-2933316080.42
116,205.555,-2.33902e-09,1.28754e-06,0.0516982,-2933316080.42
117,205.978,7.27195e-10,9.53815e-07,0.0596565,-2933316080.42
118,206.404,-2.31546e-10,1.03295e-06,0.0679305,-2933316080.42
119,206.788,1.30518e-09,1.34035e-06,0.0776405,-2933316080.42
120,207.216,-1.427e-10,7.80626e-07,0.0903427,-2933316080.42
121,207.646,-2.06421e-10,1.09089e-06,0.103134,-2933316080.42
122,208.078,2.67416e-10,1.14267e-06,0.116894,-2933316080.42
123,208.512,1.62805e-10,1.29473e-06,0.131119,-2933316080.42
124,208.904,-1.7859e-11,1.21902e-06,0.145097,-2933316080.42
125,209.342,1.02064e-10,1.76054e-06,0.158038,-2933316080.42
126,209.781,1.7934e-10,1.31402e-06,0.171145,-2933316080.42
127,210.222,3.41578e-11,6.43173e-07,0.186057,-2933316080.42
128,210.62,-3.68438e-11,1.1703e-06,0.2022,-2933316080.42
129,211.065,2.19502e-11,8.38024e-07,0.218599,-2933316080.42
130,211.511,6.62034e-11,1.53129e-06,0.239028,-2933316080.42
131,211.96,2.79903e-11,2.22954e-07,0.259604,-2933316080.42
132,212.41,-1.60546e-11,8.98035e-07,0.277902,-2933316080.42
133,212.817,-6.05793e-11,1.02716e-06,0.293105,-2933316080.42
134,213.27,-7.01962e-11,1.50001e-06,0.308442,-2933316080.42
135,213.726,-3.91869e-11,6.28647e-07,0.314083,-2933316080.42
136,214.184,-4.91739e-11,8.59187e-07,0.318149,-2933316080.42
137,214.644,-3.22294e-11,1.20159e-06,0.322552,-2933316080.42
138,215.059,-1.7352e-11,1.54637e-06,0.327717,-2933316080.42
139,215.523,1.9415e-12,8.32813e-07,0.332959,-2933316080.42
140,215.988,-1.15819e-11,8.16506e-07,0.338784,-2933316080.42
141,216.456,-3.04768e-11,7.1746e-07,0.344884,-2933316080.42
142,216.878,-3.65727e-11,1.41796e-06,0.350663,-2933316080.42
143,217.35,-3.73145e-11,1.0059e-06,0.355192,-2933316080.42
144,217.823,4.59758e-11,7.10445e-07,0.359752,-2933316080.42
145,218.298,4.32135e-11,1.94742e-06,0.362756,-2933316080.42
146,218.776,-1.15918e-11,1.63122e-06,0.364584,-2933316080.42
147,219.208,6.14152e-11,2.18105e-06,0.366207,-2933316080.42
148,219.689,1.14123e-11,2.80084e-06,0.373597,-2933316080.42
149,220.173,4.44414e-11,1.98548e-06,0.381039,-2933316080.42
150,220.659,-8.67022e-12,1.74781e-06,0.385867,-2933316080.42
151,221.098,-1.91201e-11,1.59388e-06,0.386524,-2933316080.42
152,221.588,-5.32015e-12,1.32681e-06,0.387329,-2933316080.42
153,222.08,-3.01238e-11,1.63086e-06,0.386094,-2933316080.42
154,222.574,-6.34314e-12,1.85197e-06,0.384437,-2933316080.42
155,223.071,-6.9555e-11,1.44888e-06,0.383342,-2933316080.42
156,223.519,3.42477e-11,2.37486e-06,0.384158,-2933316080.42
157,224.02,2.1148e-12,2.89863e-06,0.385041,-2933316080.42
158,224.523,1.17835e-11,2.48422e-06,0.395425,-2933316080.42
159,225.028,6.72501e-12,2.1747e-06,0.410402,-2933316080.42
160,225.536,1.31684e-11,3.95156e-06,0.424735,-2933316080.42
161,225.994,1.38672e-11,3.55639e-06,0.433196,-2933316080.42
162,226.506,5.44699e-11,3.22507e-06,0.441968,-2933316080.42
163,227.02,2.47302e-11,4.31494e-06,0.444099,-2933316080.42
164,227.537,-4.03363e-12,2.14586e-06,0.44045,-2933316080.42
165,228.004,-1.68909e-12,2.5515e-06,0.436601,-2933316080.42
166,228.525,-1.87505e-13,1.45585e-06,0.436582,-2933316080.42
167,229.048,-5.46114e-11,2.28202e-06,0.436818,-2933316080.42
168,229.574,-3.22185e-11,2.21183e-06,0.442763,-2933316080.42
169,230.102,-2.2537e-11,2.43273e-06,0.458306,-2933316080.42
170,230.58,1.79516e-11,2.86633e-06,0.473781,-2933316080.42
171,231.113,2.64166e-10,2.12598e-06,0.485007,-2933316080.42
172,231.648,1.94153e-10,2.03569e-06,0.495175,-2933316080.42
173,232.186,1.42777e-11,1.79287e-06,0.504099,-2933316080.42
174,232.726,-1.19961e-10,6.61122e-07,0.508308,-2933316080.42
175,233.215,-3.09587e-11,5.17547e-07,0.512345,-2933316080.42
176,233.76,1.75041e-10,6.83744e-08,0.515096,-2933316080.42
177,234.308,1.86959e-10,-1.49729e-06,0.51706,-2933316080.42
178,234.858,2.48651e-11,1.14091e-06,0.519395,-2933316080.42
179,235.355,3.43877e-11,2.36389e-06,0.525599,-2933316080.42
180,235.911,-4.55416e-11,2.27621e-06,0.532148,-2933316080.42
181,236.468,6.75372e-11,2.35109e-06,0.534107,-2933316080.42
182,237.029,2.24092e-11,3.85146e-06,0.53142,-2933316080.42
183,237.592,-1.4918e-11,4.80389e-06,0.528799,-2933316080.42
184,238.101,-5.14755e-11,3.71853e-06,0.530543,-2933316080.42
185,238.669,2.7182e-11,4.42318e-06,0.532975,-2933316080.42
186,239.24,-2.12492e-11,3.95255e-06,0.538856,-2933316080.42
187,239.814,4.77764e-11,5.53207e-06,0.55149,-2933316080.42
188,240.391,-2.17198e-12,4.53932e-06,0.56413,-2933316080.42
189,240.912,-1.36614e-11,6.55561e-06,0.575413,-2933316080.42
190,241.494,2.77137e-12,6.09298e-06,0.58664,-2933316080.42
191,242.078,2.64291e-11,5.57306e-06,0.593979,-2933316080.42
192,242.666,-2.92535e-13,4.34701e-06,0.585119,-2933316080.42
193,243.197,-1.04346e-11,4.08585e-06,0.575943,-2933316080.42
194,243.79,-1.51638e-10,4.97776e-06,0.568271,-2933316080.42
195,244.385,-1.15964e-10,4.55644e-06,0.561398,-2933316080.42
196,244.984,1.64709e-11,6.86506e-06,0.555236,-2933316080.42
197,245.586,-3.91769e-12,5.38523e-06,0.564153,-2933316080.42
198,246.13,1.87121e-10,4.6465e-06,0.572901,-2933316080.42
199,246.737,-1.22954e-10,4.22501e-06,0.584792,-2933316080.42
200,247.347,-4.80283e-11,7.78723e-06,0.599921,-2933316080.42
201,247.961,-1.19743e-10,8.03158e-06,0.615174,-2933316080.42
202,248.577,-1.20981e-10,5.79624e-06,0.615102,-2933316080.42
203,249.134,-8.11144e-11,7.06394e-06,0.612975,-2933316080.42
204,249.757,-7.40844e-11,8.05747e-06,0.609789,-2933316080.42
205,250.382,3.72463e-11,7.02798e-06,0.603765,-2933316080.42
206,251.01,1.59074e-10,5.77369e-06,0.597684,-2933316080.42
207,251.579,-1.89147e-10,6.80566e-06,0.601401,-2933316080.42
208,252.213,3.41176e-11,8.55933e-06,0.608956,-2933316080.42
209,252.851,1.84846e-10,6.99661e-06,0.616469,-2933316080.42
210,253.492,1.48332e-10,1.22622e-05,0.62435,-2933316080.42
211,254.136,2.31071e-10,1.62791e-05,0.632294,-2933316080.42
212,254.719,1.0485e-10,1.79156e-05,0.637547,-2933316080.42
213,255.369,6.34067e-11,2.20369e-05,0.641562,-2933316080.42
214,256.023,3.41971e-10,2.33318e-05,0.64571,-2933316080.42
215,256.68,2.80115e-10,2.44962e-05,0.655746,-2933316080.42
216,257.34,-2.05655e-10,3.34666e-05,0.665866,-2933316080.42
217,257.938,1.6372e-10,4.10388e-05,0.675878,-2933316080.42
218,258.605,7.7167e-11,4.38139e-05,0.686372,-2933316080.42
219,259.275,1.37038e-11,4.60247e-05,0.696953,-2933316080.42
220,259.949,1.23205e-10,5.4913e-05,0.693838,-2933316080.42
221,260.559,6.15843e-11,6.07936e-05,0.688238,-2933316080.42
222,261.24,-4.75959e-10,7.38362e-05,0.681814,-2933316080.42
223,261.924,2.33676e-10,8.92549e-05,0.672513,-2933316080.42
224,262.612,-1.99951e-10,0.00010567,0.663123,-2933316080.42
225,263.303,-1.80947e-10,0.000126546,0.670572,-2933316080.42
226,263.929,8.43758e-11,0.000157197,0.684467,-2933316080.42
227,264.627,-1.70766e-11,0.000188864,0.700326,-2933316080.42
228,265.329,2.10258e-10,0.000238864,0.7296,-2933316080.42
229,266.035,1.7416e-10,0.00029427,0.752909,-2933316080.42
230,266.673,5.81188e-12,0.000361985,0.761676,-2933316080.42
231,267.386,5.28624e-10,0.000450254,0.756621,-2933316080.42
232,268.103,4.95332e-10,0.000570279,0.741715,-2933316080.42
233,268.824,-9.52018e-11,0.000706212,0.718408,-2933316080.42
234,269.549,2.01876e-10,0.000879437,0.701132,-2933316080.42
235,270.204,3.09564e-10,0.00108339,0.696843,-2933316080.42
236,270.936,9.8206e-11,0.00127151,0.692259,-2933316080.42
237,271.672,3.84288e-10,0.00147046,0.708244,-2933316080.42
238,272.412,-1.83312e-11,0.00169867,0.724025,-2933316080.42
239,273.156,-7.28139e-10,0.00194212,0.731575,-2933316080.42
240,273.829,-1.1099e-09,0.00222303,0.742464,-2933316080.42
241,274.581,2.57312e-10,0.00259352,0.744995,-2933316080.42
242,275.337,-1.19611e-09,0.00298342,0.73894,-2933316080.42
243,276.098,-7.57915e-10,0.00338297,0.725838,-2933316080.42
244,276.785,-1.30197e-10,0.003865,0.716787,-2933316080.42
245,277.553,-5.65453e-10,0.00442395,0.714797,-2933316080.42
246,278.326,1.13072e-10,0.00495157,0.716982,-2933316080.42
247,279.103,-9.18597e-10,0.00549233,0.705917,-2933316080.42
248,279.884,1.71542e-10,0.00610385,0.698132,-2933316080.42
249,280.591,2.63812e-10,0.00685667,0.686773,-2933316080.42
250,281.38,5.88178e-10,0.00745949,0.667076,-2933316080.42
251,282.174,-5.62643e-10,0.00836895,0.640917,-2933316080.42
252,282.973,-2.31346e-10,0.00949611,0.624376,-2933316080.42
253,283.776,1.84512e-10,0.0104381,0.582985,-2933316080.42
254,284.502,-3.63194e-10,0.0125155,0.578798,-2933316080.42
255,285.314,1.8899e-10,0.0163209,0.62029,-2933316080.42
256,286.13,1.34621e-10,0.0181824,0.568841,-2933316080.42
257,286.951,2.08501e-09,0.0234865,0.576801,-2933316080.42
258,287.694,3.2048e-09,0.0284197,0.550902,-2933316080.42
259,288.524,5.23077e-09,0.035033,0.51061,-2933316080.42
260,289.359,8.06631e-09,0.0419788,0.454913,-2933316080.42
261,290.199,5.55612e-09,0.0501201,0.400852,-2933316080.42
262,291.043,1.4256e-08,0.0584513,0.338741,-2933316080.42
263,291.808,-5.85279e-09,0.0690191,0.285887,-2933316080.42
264,292.662,-3.33283e-08,0.0846931,0.238946,-2933316080.42
265,293.521,-7.77933e-10,0.106692,0.194949,-2933316080.42
266,294.385,-4.87628e-10,0.134424,0.112433,-2933316080.42
267,295.254,-7.28991e-11,0.167601,0.0510056,-2933316080.42
268,296.041,-1.0929e-08,0.202966,0.028111,-2933316080.42
269,296.92,-1.00071e-08,0.238091,0.0169598,-2933316080.42
270,297.804,-3.73468e-09,0.263387,0.0105802,-2933316080.42
271,298.693,4.60669e-08,0.280994,0.00686109,-2933316080.42
272,299.498,3.02984e-08,0.295864,0.00560785,-2933316080.42
273,300.398,5.12672e-08,0.310795,0.00472785,-2933316080.42
274,301.303,-5.13187e-08,0.322311,0.0043016,-2933316080.42
275,302.214,-2.52092e-08,0.330435,0.00409594,-2933316080.42
276,303.13,8.00367e-09,0.342791,0.0039339,-2933316080.42
277,303.959,8.20398e-08,0.346432,0.00375426,-2933316080.42
278,304.886,-4.26991e-08,0.345224,0.00357755,-2933316080.42
279,305.818,6.3645e-08,0.344954,0.00330741,-2933316080.42
280,306.756,-1.32531e-08,0.347234,0.00300608,-2933316080.42
281,307.7,-1.32217e-08,0.353471,0.00271864,-2933316080.42
282,308.555,-3.79334e-08,0.350056,0.00237969,-2933316080.42
283,309.509,2.17879e-07,0.364882,0.00213201,-2933316080.42
284,310.47,1.19168e-07,0.378148,0.00190481,-2933316080.42
285,311.437,7.03412e-08,0.386466,0.00169697,-2933316080.42
286,312.313,6.25899e-09,0.390045,0.00149925,-2933316080.42
287,313.291,-1.51053e-09,0.398751,0.00130237,-2933316080.42
288,314.276,5.15891e-08,0.406463,0.00109996,-2933316080.42
289,315.266,-5.63402e-08,0.402533,0.000924298,-2933316080.42
290,316.263,1.72317e-07,0.401164,0.00077253,-2933316080.42
291,317.166,1.78828e-07,0.399053,0.000640208,-2933316080.42
292,318.175,1.71263e-07,0.390924,0.000540162,-2933316080.42
293,319.191,1.49672e-08,0.390995,0.000474471,-2933316080.42
294,320.213,1.22219e-07,0.39751,0.000419938,-2933316080.42
295,321.138,1.6946e-07,0.421063,0.000386951,-2933316080.42
296,322.173,3.81138e-07,0.446651,0.000360292,-2933316080.42
297,323.214,3.54276e-07,0.476358,0.000338597,-2933316080.42
298,324.262,1.88221e-07,0.487067,0.000311056,-2933316080.42
299,325.317,6.34248e-07,0.496916,0.000283988,-2933316080.42
300,326.272,3.53072e-07,0.482537,0.000254587,-2933316080.42
301,327.34,1.09261e-06,0.480049,0.000231337,-2933316080.42
302,328.415,3.80221e-07,0.468552,0.000207825,-2933316080.42
303,329.498,9.32137e-07,0.464502,0.000186284,-2933316080.42
304,330.587,1.03637e-06,0.472923,0.000172861,-2933316080.42
305,331.573,1.68183e-06,0.486909,0.00016047,-2933316080.42
306,332.676,1.87994e-06,0.49462,0.000150212,-2933316080.42
307,333.787,2.89379e-06,0.51219,0.00014255,-2933316080.42
308,334.905,3.15264e-06,0.520955,0.000134797,-2933316080.42
309,335.917,3.12818e-06,0.526153,0.000125726,-2933316080.42
310,337.049,4.14197e-06,0.529359,0.000116393,-2933316080.42
311,338.189,4.21417e-06,0.530802,0.000106349,-2933316080.42
312,339.337,7.11937e-06,0.526467,9.78693e-05,-2933316080.42
313,340.492,8.40958e-06,0.528659,9.17918e-05,-2933316080.42
314,341.539,6.042e-06,0.532192,8.61703e-05,-2933316080.42
315,342.709,8.43974e-06,0.538963,8.22966e-05,-2933316080.42
316,343.888,1.61421e-05,0.557354,7.92704e-05,-2933316080.42
317,345.074,1.82332e-05,0.564532,7.53946e-05,-2933316080.42
318,346.269,2.25764e-05,0.557549,6.96104e-05,-2933316080.42
319,347.352,3.63112e-05,0.54245,6.31593e-05,-2933316080.42
320,348.562,4.77473e-05,0.543186,5.6936e-05,-2933316080.42
321,349.781,6.10132e-05,0.533633,5.10094e-05,-2933316080.42
322,351.009,9.33817e-05,0.540238,4.64712e-05,-2933316080.42
323,352.122,0.000146173,0.566288,4.45379e-05,-2933316080.42
324,353.366,0.000196826,0.600999,4.36172e-05,-2933316080.42
325,354.619,0.00021965,0.636019,4.32101e-05,-2933316080.42
326,355.881,0.000269957,0.643986,4.16491e-05,-2933316080.42
327,357.152,0.000338143,0.6538,3.98668e-05,-2933316080.42
328,358.303,0.000328081,0.645629,3.60107e-05,-2933316080.42
329,359.592,0.000277329,0.616494,3.14262e-05,-2933316080.42
330,360.89,0.000296555,0.603742,2.79795e-05,-2933316080.42
